ltspice_tx::signal_out[V(V_D1n)] (time),ltspice_tx::signal_out[V(V_D1n)] (signal)
0.0,3.881479501724243
2.559999989770745e-09,3.8814797401428223
5.11999997954149e-09,3.8814797401428223
2.047999991816596e-08,3.8814809322357178
4.095999983633192e-08,3.8814826011657715
4.9999e-05,3.8815245628356934
4.99991e-05,3.8815455436706543
4.99993e-05,3.881605625152588
4.9999438640957304e-05,3.8816659450531006
4.999957738876215e-05,3.8817477226257324
4.999977845953686e-05,3.88189697265625
5e-05,3.8820877075195312
5.000002992154952e-05,3.882115364074707
5.000008976464856e-05,3.882169246673584
5.000020945084662e-05,3.8822736740112305
5.000034303436922e-05,3.882387399673462
5.000048193435595e-05,3.8825018405914307
5.0000759734329405e-05,3.882719039916992
5.0001315334276314e-05,3.883104085922241
5.0002426534170126e-05,3.8835957050323486
5.000301725767675e-05,3.8832321166992188
5.0003571505320054e-05,3.8818700313568115
5.000390703597381e-05,3.880413055419922
5.000421626663891e-05,3.878628730773926
5.0004559266739105e-05,3.8763346672058105
5.000513377439613e-05,3.8721506595611572
5.0005466048672906e-05,3.8696250915527344
5.000587588457033e-05,3.866459608078003
5.0006061623605946e-05,3.8650317192077637
5.0006269446235975e-05,3.8634495735168457
5.000649677830733e-05,3.861738681793213
5.0006723633993386e-05,3.8600566387176514
5.000701748836618e-05,3.8579204082489014
5.0007412362144774e-05,3.85512113571167
5.000785097601668e-05,3.85211443901062
5.0008464229874444e-05,3.8480782508850098
5.0009076789460677e-05,3.84424090385437
5.000994471546654e-05,3.839107036590576
5.001085419530902e-05,3.834080696105957
5.001223982855703e-05,3.827014207839966
5.0013823556347654e-05,3.8197178840637207
5.001669837414576e-05,3.808108329772949
5.0020687629078744e-05,3.794654607772827
5.00286661389447e-05,3.7740182876586914
5.004462315867662e-05,3.7451653480529785
5.0075296417367815e-05,3.708625078201294
5.01107924774398e-05,3.681565046310425
5.017140043634649e-05,3.653115749359131
5.026042097830809e-05,3.6274008750915527
5.040424516890393e-05,3.603234052658081
5.060702200253939e-05,3.584109306335449
5.0866418082868934e-05,3.570939302444458
5.1158042652349934e-05,3.5631322860717773
5.1497362927218956e-05,3.5586740970611572
5.1964187534367226e-05,3.556112289428711
5.252729425680692e-05,3.5550801753997803
5.934788337494931e-05,3.5547406673431396
6.61684724930917e-05,3.5547780990600586
9.91684724930916e-05,3.5547780990600586
9.9999e-05,3.5547754764556885
9.999910000000001e-05,3.5547890663146973
9.999930000000001e-05,3.554832696914673
9.999943701027235e-05,3.5548834800720215
9.999961906850177e-05,3.5549821853637695
9.999980121938908e-05,3.5551064014434814
0.0001,3.5552616119384766
0.00010000002644013686,3.555284023284912
0.00010000007932041056,3.555328845977783
0.00010000018508095794,3.5554141998291016
0.00010000029147905705,3.5554935932159424
0.00010000039354420011,3.5555613040924072
0.0001000005976744862,3.555675983428955
0.00010000097281309349,3.555845022201538
0.00010000142649927953,3.556001901626587
0.00010000184413839729,3.55611252784729
0.00010000230925167816,3.5562117099761963
0.00010000283000536246,3.556307554244995
0.00010000346559610338,3.5564136505126953
0.00010000421219145809,3.5565316677093506
0.00010000518762934755,3.5566818714141846
0.00010000645110525961,3.5568740367889404
0.00010000835811800318,3.5571634769439697
0.00010001128199546519,3.5576071739196777
0.00010001712975038919,3.5584962368011475
0.00010002262758585196,3.559333086013794
0.00010002741226059451,3.5600619316101074
0.00010003223509894303,3.5607969760894775
0.00010003737755705747,3.5615811347961426
0.00010004215386956203,3.562309503555298
0.00010004710923930673,3.56306529045105
0.00010005178893217749,3.563778877258301
0.00010005663670047956,3.5645182132720947
0.00010006130618946131,3.565230131149292
0.00010006611519705399,3.5659632682800293
0.00010007079524204994,3.566676616668701
0.00010007560703739383,3.5674099922180176
0.00010008032225450051,3.5681285858154297
0.00010008519394129763,3.568870782852173
0.00010008998424735912,3.5696005821228027
0.00010009501467445593,3.570366859436035
0.00010009996047445991,3.571119785308838
0.00010010532543072628,3.57193660736084
0.00010011060054005898,3.572739601135254
0.0001001171563501464,3.573737382888794
0.00010012411229675355,3.574795722961426
0.000100133390630573,3.576206922531128
0.00010014330522239427,3.577714204788208
0.00010015763874587073,3.57989239692688
0.00010017389527749041,3.5823609828948975
0.00010023664015450827,3.591874122619629
0.00010044826377518946,3.6238324642181396
0.00010063788403548675,3.6521809101104736
0.00010083212185573624,3.680657148361206
0.00010103952539599245,3.7101166248321533
0.0001012330792514762,3.736344337463379
0.0001014378074546742,3.7623236179351807
0.00010163949646992232,3.7856829166412354
0.00010185592339847217,3.8077731132507324
0.00010231373597976671,3.8429417610168457
0.00010256552921908052,3.8557441234588623
0.00010284857247269586,3.8656039237976074
0.00010316418869540979,3.8724558353424072
0.0001035371751928053,3.876945972442627
0.00010398096452731829,3.8795218467712402
0.00010454381833753853,3.880824089050293
0.00010527919897441814,3.8813512325286865
0.00011227919897441812,3.881545066833496
0.0001192791989744181,3.8815245628356934
0.00014927919897441802,3.8815245628356934
0.000149999,3.8815243244171143
0.0001499991,3.8815455436706543
0.0001499993,3.881605625152588
0.00014999943863285416,3.8816659450531006
0.00014999957737271596,3.8817477226257324
0.0001499997784441571,3.88189697265625
0.00015,3.8820877075195312
0.00015000002992098625,3.882115364074707
0.00015000008976295877,3.882169246673584
0.00015000020944690384,3.8822736740112305
0.0001500003430303654,3.882387399673462
0.00015000048192809692,3.8825018405914307
0.00015000075972355993,3.882719039916992
0.00015000131531448595,3.883104085922241
0.000150002426496338,3.8835957050323486
0.00015000301720842634,3.8832321166992188
0.0001500035714177154,3.8818705081939697
0.00015000390697393628,3.880413293838501
0.00015000421619910538,3.878628969192505
0.00015000455920076558,3.8763351440429688
0.0001500051338685824,3.87214994430542
0.0001500054661342891,3.869624376296997
0.00015000587591651652,3.866459369659424
0.00015000606157016558,3.865032196044922
0.0001500062692303564,3.8634510040283203
0.00015000649644230163,3.861741065979004
0.00015000672315751307,3.860060214996338
0.00015000701690563636,3.857924699783325
0.00015000741160347934,3.85512638092041
0.00015000785011337213,3.8521203994750977
0.00015000846318859382,3.8480849266052246
0.0001500090755978006,3.844248056411743
0.00015000994321679657,3.839115619659424
0.00015001085239794512,3.834090232849121
0.00015001223735349652,3.827026128768921
0.00015001382027820672,3.819732189178467
0.0001500166927263245,3.80812931060791
0.0001500206780891822,3.7946839332580566
0.00015002864881489755,3.774057626724243
0.0001500445902663283,3.7452168464660645
0.0001500752599859686,3.7086596488952637
0.00015011073084083255,3.6816022396087646
0.00015017131022624264,3.653149366378784
0.00015026026819346807,3.6274354457855225
0.00015040404656738315,3.6032588481903076
0.00015060667576877372,3.5841331481933594
0.00015086609751609949,3.570950984954834
0.0001511575909368952,3.5631399154663086
0.00015149688538231742,3.558677911758423
0.00015196352032253026,3.5561141967773438
0.00015252656593251027,3.5550806522369385
0.00015934695945082114,3.5547406673431396
0.000166167352969132,3.5547780990600586
0.0001991673529691319,3.5547780990600586
0.000199999,3.5547754764556885
0.0001999991,3.5547890663146973
0.00019999930000000001,3.554832696914673
0.0001999994370102736,3.5548834800720215
0.00019999961906850264,3.5549821853637695
0.00019999980121939334,3.5551064014434814
0.0002,3.5552616119384766
